EXPLAIN
TAG	CORPOT
TITLE	LABEL	Open Circuit Potential	Test Identifier
DATE	LABEL	9/3/2024	Date
TIME	LABEL	5:23:40	Time
NOTES	NOTES	1	Notes...
	
PSTAT	PSTAT	REF3000-48128	Potentiostat
TIMEOUT	QUANT	6.00000E+001	Total Time (s)
SAMPLETIME	QUANT	5.00000E-001	Sample Period (s)
STABILITY	QUANT	0.00000E+000	Stability (mV/s)
AREA	QUANT	1.00000E+000	Sample Area (cm^2)
SEQUENCER	TOGGLE	TRUE	Run as Sequence
PSTATMODEL	IQUANT	5	Pstat Model
PSTATSECTION	LABEL	REF3000-48128	Pstat Section
PSTATSERIALNO	LABEL	48128	Pstat Serial Number
CTRLMODE	IQUANT	1	Control Mode
ELECTROMETER	IQUANT	0	RE=0 or CS=1
IESTAB	IQUANT	2	I/E Stability
CASPEED	IQUANT	4	Control Amp Speed
CONVENTION	IQUANT	1	Current Convention
ICHRANGE	IQUANT	2	Ich Range
ICHRANGEMODE	TOGGLE	T	Ich Auto Range
ICHOFFSETENABLE	TOGGLE	F	Ich Offset Enable
ICHOFFSET	QUANT	0	Ich Offset (V)
ICHFILTER	IQUANT	3	Ich Filter
VCHRANGE	IQUANT	3	Vch Range
VCHRANGEMODE	TOGGLE	T	Vch Auto Range
VCHOFFSETENABLE	TOGGLE	F	Vch Offset Enable
VCHOFFSET	QUANT	0	Vch Offset (V)
VCHFILTER	IQUANT	3	Vch Filter
ACHRANGE	IQUANT	2	Ach Range
ACHOFFSETENABLE	TOGGLE	F	Ach Offset Enable
ACHOFFSET	QUANT	0	Ach Offset (V)
ACHFILTER	IQUANT	1	Ach Filter
IERANGELOWERLIMIT	IQUANT	2	I/E Range Lower Limit
IERANGEMODE	TOGGLE	F	I/E AutoRange
IERANGE	IQUANT	11	I/E Range
POSFEEDENABLE	TOGGLE	F	Positive Feedback IR Comp
POSFEEDRESISTANCE	QUANT	0	Positive Feedback Resistance (ohm)
ACHSELECT	IQUANT	4	Ach Select
SENSECABLEID	IQUANT	14	Sense Cable ID
PWRCABLEID	IQUANT	7	Power Cable ID
DCCALDATE	LABEL	8/16/2024	DC Calibration Date
ACCALDATE	LABEL	8/16/2024	AC Calibration Date
THERMOSELECT	IQUANT	1	Thermo Select
FRAMEWORKVERSION	LABEL	7.10.3	Framework Version
INSTRUMENTVERSION	LABEL	4.91	Instrument Version
COMMVERSION	LABEL	5.10	Communications Version
CPUPLDVERSION	LABEL	6.00	CPU PLD Version
CTRLPLDVERSION	LABEL	3.21	CTRL PLD Version
PSTATPLDVERSION	LABEL	0.00	PSTAT PLD Version
COMPLIANCEVOLTAGE	IQUANT	0	Compliance Voltage
CURVE	TABLE	118
	Pt	T	Vf	Vm	Ach	Over	Temp
	#	s	V vs. Ref.	V	V	bits	deg C
	0	0.51	5.35602E-001	5.35602E-001	-1.06221E-004	...........	-327.56
	1	1.02	5.34896E-001	4.98642E-001	-1.12788E-004	...........	-327.56
	2	1.53	5.30659E-001	4.68767E-001	-1.04955E-004	...........	-327.56
	3	2.04	5.19171E-001	4.49055E-001	-1.08088E-004	...........	-327.56
	4	2.55	5.00123E-001	4.36655E-001	-1.03388E-004	...........	-327.56
	5	3.06	4.77812E-001	4.27645E-001	-1.09488E-004	...........	-327.56
	6	3.57	4.57394E-001	4.20868E-001	-1.04821E-004	...........	-327.56
	7	4.08	4.41518E-001	4.15277E-001	-1.08221E-004	...........	-327.56
	8	4.59	4.30170E-001	4.10482E-001	-1.08955E-004	...........	-327.56
	9	5.1	4.22106E-001	4.06315E-001	-1.09288E-004	...........	-327.56
	10	5.61	4.16046E-001	4.02744E-001	-1.06155E-004	...........	-327.56
	11	6.12	4.11140E-001	3.99441E-001	-1.12821E-004	...........	-327.56
	12	6.63	4.06947E-001	3.96776E-001	-1.03588E-004	...........	-327.56
	13	7.14	4.03269E-001	3.94053E-001	-1.09955E-004	...........	-327.56
	14	7.65	4.00005E-001	3.91569E-001	-1.06555E-004	...........	-327.56
	15	8.16	3.97068E-001	3.89241E-001	-1.07321E-004	...........	-327.56
	16	8.67	3.94374E-001	3.87035E-001	-1.05921E-004	...........	-327.56
	17	9.18	3.91866E-001	3.84916E-001	-1.07588E-004	...........	-327.56
	18	9.69	3.89506E-001	3.82824E-001	-1.04955E-004	...........	-327.56
	19	10.2	3.87263E-001	3.80782E-001	-1.08088E-004	...........	-327.56
	20	10.71	3.85109E-001	3.78878E-001	-1.07121E-004	...........	-327.56
	21	11.22	3.83025E-001	3.76930E-001	-1.10088E-004	...........	-327.56
	22	11.73	3.81007E-001	3.75241E-001	-1.05188E-004	...........	-327.56
	23	12.24	3.79058E-001	3.73445E-001	-1.10155E-004	...........	-327.56
	24	12.75	3.77181E-001	3.71682E-001	-1.05855E-004	...........	-327.56
	25	13.26	3.75368E-001	3.70112E-001	-1.08788E-004	...........	-327.56
	26	13.77	3.73607E-001	3.68443E-001	-1.04221E-004	...........	-327.56
	27	14.28	3.71894E-001	3.66785E-001	-1.09488E-004	...........	-327.56
	28	14.79	3.70220E-001	3.65177E-001	-1.06421E-004	...........	-327.56
	29	15.3	3.68570E-001	3.63596E-001	-1.08921E-004	...........	-327.56
	30	15.81	3.66937E-001	3.62010E-001	-1.04488E-004	...........	-327.56
	31	16.32	3.65323E-001	3.60523E-001	-1.06688E-004	...........	-327.56
	32	16.83	3.63733E-001	3.58924E-001	-1.05721E-004	...........	-327.56
	33	17.34	3.62164E-001	3.57370E-001	-1.10155E-004	...........	-327.56
	34	17.85	3.60606E-001	3.55781E-001	-1.03455E-004	...........	-327.56
	35	18.36	3.59049E-001	3.54347E-001	-1.06821E-004	...........	-327.56
	36	18.87	3.57499E-001	3.52890E-001	-1.08188E-004	...........	-327.56
	37	19.38	3.55970E-001	3.51401E-001	-1.12355E-004	...........	-327.56
	38	19.89	3.54470E-001	3.49937E-001	-1.06455E-004	...........	-327.56
	39	20.4	3.52994E-001	3.48659E-001	-1.07721E-004	...........	-327.56
	40	20.91	3.51540E-001	3.47141E-001	-1.08155E-004	...........	-327.56
	41	21.42	3.50109E-001	3.45707E-001	-1.09888E-004	...........	-327.56
	42	21.93	3.48688E-001	3.44286E-001	-1.11021E-004	...........	-327.56
	43	22.44	3.47264E-001	3.42996E-001	-1.15388E-004	...........	-327.56
	44	22.95	3.45846E-001	3.41575E-001	-1.15621E-004	...........	-327.56
	45	23.46	3.44447E-001	3.40214E-001	-1.20288E-004	...........	-327.56
	46	23.97	3.43067E-001	3.38915E-001	-1.13255E-004	...........	-327.56
	47	24.48	3.41698E-001	3.37474E-001	-1.16888E-004	...........	-327.56
	48	24.99	3.40336E-001	3.36109E-001	-1.17321E-004	...........	-327.56
	49	25.5	3.38972E-001	3.34807E-001	-1.20655E-004	...........	-327.56
	50	26.01	3.37607E-001	3.33484E-001	-1.14955E-004	...........	-327.56
	51	26.52	3.36251E-001	3.32143E-001	-1.15288E-004	...........	-327.56
	52	27.03	3.34910E-001	3.30822E-001	-1.15588E-004	...........	-327.56
	53	27.54	3.33581E-001	3.29619E-001	-1.20288E-004	...........	-327.56
	54	28.05	3.32266E-001	3.28356E-001	-1.16055E-004	...........	-327.56
	55	28.56	3.30974E-001	3.27030E-001	-1.15521E-004	...........	-327.56
	56	29.07	3.29695E-001	3.25667E-001	-1.18488E-004	...........	-327.56
	57	29.58	3.28412E-001	3.24424E-001	-1.18921E-004	...........	-327.56
	58	30.09	3.27118E-001	3.23234E-001	-1.16255E-004	...........	-327.56
	59	30.6	3.25827E-001	3.21901E-001	-1.20688E-004	...........	-327.56
	60	31.11	3.24549E-001	3.20630E-001	-1.17955E-004	...........	-327.56
	61	31.62	3.23280E-001	3.19365E-001	-1.20188E-004	...........	-327.56
	62	32.13	3.22012E-001	3.18262E-001	-1.14955E-004	...........	-327.56
	63	32.64	3.20757E-001	3.17047E-001	-1.15288E-004	...........	-327.56
	64	33.15	3.19527E-001	3.15751E-001	-1.16688E-004	...........	-327.56
	65	33.66	3.18310E-001	3.14393E-001	-1.16888E-004	...........	-327.56
	66	34.17	3.17079E-001	3.13147E-001	-1.18188E-004	...........	-327.56
	67	34.68	3.15822E-001	3.12092E-001	-1.17955E-004	...........	-327.56
	68	35.19	3.14562E-001	3.10812E-001	-1.13055E-004	...........	-327.56
	69	35.7	3.13328E-001	3.09652E-001	-1.16655E-004	...........	-327.56
	70	36.21	3.12123E-001	3.08570E-001	-1.16755E-004	...........	-327.56
	71	36.72	3.10940E-001	3.07366E-001	-1.18355E-004	...........	-327.56
	72	37.23	3.09776E-001	3.06247E-001	-1.16855E-004	...........	-327.56
	73	37.74	3.08623E-001	3.05103E-001	-1.19155E-004	...........	-327.56
	74	38.25	3.07477E-001	3.03990E-001	-1.19021E-004	...........	-327.56
	75	38.76	3.06336E-001	3.02863E-001	-1.16221E-004	...........	-327.56
	76	39.27	3.05203E-001	3.01760E-001	-1.18488E-004	...........	-327.56
	77	39.78	3.04078E-001	3.00669E-001	-1.18088E-004	...........	-327.56
	78	40.29	3.02964E-001	2.99722E-001	-1.16621E-004	...........	-327.56
	79	40.8	3.01872E-001	2.98640E-001	-1.22088E-004	...........	-327.56
	80	41.31	3.00806E-001	2.97552E-001	-1.19655E-004	...........	-327.56
	81	41.82	2.99756E-001	2.96509E-001	-1.20688E-004	...........	-327.56
	82	42.33	2.98707E-001	2.95524E-001	-1.19088E-004	...........	-327.56
	83	42.84	2.97660E-001	2.94572E-001	-1.20388E-004	...........	-327.56
	84	43.35	2.96630E-001	2.93613E-001	-1.18488E-004	...........	-327.56
	85	43.86	2.95626E-001	2.92572E-001	-1.19188E-004	...........	-327.56
	86	44.37	2.94638E-001	2.91546E-001	-1.15888E-004	...........	-327.56
	87	44.88	2.93649E-001	2.90596E-001	-1.18655E-004	...........	-327.56
	88	45.39	2.92657E-001	2.89778E-001	-1.19888E-004	...........	-327.56
	89	45.9	2.91678E-001	2.88817E-001	-1.18588E-004	...........	-327.56
	90	46.41	2.90727E-001	2.87783E-001	-1.17188E-004	...........	-327.56
	91	46.92	2.89789E-001	2.86799E-001	-1.14821E-004	...........	-327.56
	92	47.43	2.88838E-001	2.85750E-001	-1.17488E-004	...........	-327.56
	93	47.94	2.87861E-001	2.84829E-001	-1.17155E-004	...........	-327.56
	94	48.45	2.86870E-001	2.83909E-001	-1.16188E-004	...........	-327.56
	95	48.96	2.85883E-001	2.82874E-001	-1.20955E-004	...........	-327.56
	96	49.47	2.84910E-001	2.81969E-001	-1.14521E-004	...........	-327.56
	97	49.98	2.83947E-001	2.81097E-001	-1.15588E-004	...........	-327.56
	98	50.49	2.82999E-001	2.80210E-001	-1.18555E-004	...........	-327.56
	99	51	2.82069E-001	2.79202E-001	-1.17688E-004	...........	-327.56
	100	51.51	2.81152E-001	2.78285E-001	-1.19221E-004	...........	-327.56
	101	52.02	2.80230E-001	2.77368E-001	-1.17621E-004	...........	-327.56
	102	52.53	2.79300E-001	2.76426E-001	-1.19388E-004	...........	-327.56
	103	53.04	2.78365E-001	2.75466E-001	-1.20088E-004	...........	-327.56
	104	53.55	2.77432E-001	2.74669E-001	-1.20521E-004	...........	-327.56
	105	54.06	2.76507E-001	2.73791E-001	-1.20921E-004	...........	-327.56
	106	54.57	2.75601E-001	2.72798E-001	-1.17455E-004	...........	-327.56
	107	55.08	2.74708E-001	2.72005E-001	-1.21355E-004	...........	-327.56
	108	55.59	2.73819E-001	2.71112E-001	-1.15021E-004	...........	-327.56
	109	56.1	2.72935E-001	2.70347E-001	-1.20288E-004	...........	-327.56
	110	56.61	2.72066E-001	2.69472E-001	-1.16055E-004	...........	-327.56
	111	57.12	2.71216E-001	2.68612E-001	-1.14655E-004	...........	-327.56
	112	57.63	2.70375E-001	2.67814E-001	-1.17021E-004	...........	-327.56
	113	58.14	2.69537E-001	2.66978E-001	-1.20255E-004	...........	-327.56
	114	58.65	2.68701E-001	2.66121E-001	-1.16055E-004	...........	-327.56
	115	59.16	2.67867E-001	2.65319E-001	-1.17855E-004	...........	-327.56
	116	59.67	2.67034E-001	2.64428E-001	-1.14388E-004	...........	-327.56
	117	60.18	2.66198E-001	2.63607E-001	-1.18155E-004	...........	-327.56
